     #Energy           s          py          pz          px         dxy         dyz         dz2         dxz         dx2       tot  
   -20.87323     0.00000     0.00000     0.00000     0.00000     0.00000     0.00000     0.00000     0.00000     0.00000     0.00000
   -20.67223     0.00000     0.00000     0.00000     0.00000     0.00000     0.00000     0.00000     0.00000     0.00000     0.00000
   -20.47223     0.00000     0.00000     0.00000     0.00000     0.00000     0.00000     0.00000     0.00000     0.00000     0.00000
   -20.27123     0.00000     0.00000     0.00000     0.00000     0.00000     0.00000     0.00000     0.00000     0.00000     0.00000
   -20.07023     0.00000     0.00000     0.00000     0.00000     0.00000     0.00000     0.00000     0.00000     0.00000     0.00000
   -19.87023     0.00000     0.00000     0.00000     0.00000     0.00000     0.00000     0.00000     0.00000     0.00000     0.00000
   -19.66923     0.00000     0.00000     0.00000     0.00000     0.00000     0.00000     0.00000     0.00000     0.00000     0.00000
   -19.46923     0.00000     0.00000     0.00000     0.00000     0.00000     0.00000     0.00000     0.00000     0.00000     0.00000
   -19.26823     0.00000     0.00000     0.00000     0.00000     0.00000     0.00000     0.00000     0.00000     0.00000     0.00000
   -19.06723     0.00000     0.00000     0.00000     0.00000     0.00000     0.00000     0.00000     0.00000     0.00000     0.00000
   -18.86723     0.00000     0.00000     0.00000     0.00000     0.00000     0.00000     0.00000     0.00000     0.00000     0.00000
   -18.66623    -0.00000    -0.00000    -0.00000    -0.00000     0.00000     0.00000     0.00000     0.00000     0.00000    -0.00000
   -18.46623    -0.00000    -0.00000    -0.00000    -0.00000     0.00000     0.00000     0.00000     0.00000     0.00000    -0.00000
   -18.26523    -0.00010    -0.00000    -0.00000    -0.00000     0.00000     0.00000     0.00000     0.00000     0.00000    -0.00010
   -18.06523    -0.00715    -0.00001    -0.00000    -0.00001     0.00000     0.00000     0.00000     0.00000     0.00000    -0.00716
   -17.86423    -0.03297    -0.00005    -0.00000    -0.00005     0.00000     0.00000     0.00000     0.00000     0.00000    -0.03308
   -17.66323    -0.07117    -0.00017    -0.00000    -0.00017     0.00000     0.00000     0.00000     0.00000     0.00000    -0.07152
   -17.46323    -0.11108    -0.00039    -0.00000    -0.00039     0.00000     0.00000     0.00000     0.00000     0.00000    -0.11185
   -17.26223    -0.15332    -0.00070    -0.00000    -0.00070     0.00000     0.00000     0.00000     0.00000     0.00000    -0.15471
   -17.06223    -0.19305    -0.00105    -0.00000    -0.00105     0.00000     0.00000     0.00000     0.00000     0.00000    -0.19514
   -16.86123    -0.23665    -0.00151    -0.00000    -0.00151     0.00000     0.00000     0.00000     0.00000     0.00000    -0.23968
   -16.66123    -0.28553    -0.00209    -0.00000    -0.00209     0.00000     0.00000     0.00000     0.00000     0.00000    -0.28971
   -16.46023    -0.32906    -0.00263    -0.00000    -0.00263     0.00000     0.00000     0.00000     0.00000     0.00000    -0.33432
   -16.25923    -0.37405    -0.00323    -0.00000    -0.00323     0.00000     0.00000     0.00000     0.00000     0.00000    -0.38051
   -16.05923    -0.43135    -0.00401    -0.00000    -0.00401     0.00000     0.00000     0.00000     0.00000     0.00000    -0.43937
   -15.85823    -0.49141    -0.00480    -0.00000    -0.00480     0.00000     0.00000     0.00000     0.00000     0.00000    -0.50101
   -15.65823    -0.54275    -0.00544    -0.00000    -0.00544     0.00000     0.00000     0.00000     0.00000     0.00000    -0.55364
   -15.45723    -0.61117    -0.00621    -0.00000    -0.00621     0.00000     0.00000     0.00000     0.00000     0.00000    -0.62359
   -15.25623    -0.70029    -0.00706    -0.00000    -0.00706     0.00000     0.00000     0.00000     0.00000     0.00000    -0.71440
   -15.05623    -0.80243    -0.00772    -0.00000    -0.00772     0.00000     0.00000     0.00000     0.00000     0.00000    -0.81786
   -14.85523    -0.93018    -0.00826    -0.00000    -0.00826     0.00000     0.00000     0.00000     0.00000     0.00000    -0.94669
   -14.65523    -1.03947    -0.00862    -0.00000    -0.00862     0.00000     0.00000     0.00000     0.00000     0.00000    -1.05672
   -14.45423    -1.10721    -0.00878    -0.00000    -0.00878     0.00000     0.00000     0.00000     0.00000     0.00000    -1.12476
   -14.25423    -1.13820    -0.00881    -0.00000    -0.00881     0.00000     0.00000     0.00000     0.00000     0.00000    -1.15583
   -14.05323    -1.14066    -0.00881    -0.00000    -0.00881     0.00000     0.00000     0.00000     0.00000     0.00000    -1.15828
   -13.85223    -1.14066    -0.00881    -0.00000    -0.00881     0.00000     0.00000     0.00000     0.00000     0.00000    -1.15828
   -13.65223    -1.14066    -0.00881    -0.00000    -0.00881     0.00000     0.00000     0.00000     0.00000     0.00000    -1.15828
   -13.45123    -1.14066    -0.00881    -0.00000    -0.00881     0.00000     0.00000     0.00000     0.00000     0.00000    -1.15828
   -13.25123    -1.14066    -0.00881    -0.00000    -0.00881     0.00000     0.00000     0.00000     0.00000     0.00000    -1.15828
   -13.05023    -1.14066    -0.00881    -0.00000    -0.00881     0.00000     0.00000     0.00000     0.00000     0.00000    -1.15828
   -12.84923    -1.14066    -0.00881    -0.00000    -0.00881     0.00000     0.00000     0.00000     0.00000     0.00000    -1.15828
   -12.64923    -1.14066    -0.00881    -0.00000    -0.00881     0.00000     0.00000     0.00000     0.00000     0.00000    -1.15828
   -12.44823    -1.14066    -0.00881    -0.00000    -0.00881     0.00000     0.00000     0.00000     0.00000     0.00000    -1.15828
   -12.24823    -1.14066    -0.00881    -0.00000    -0.00881     0.00000     0.00000     0.00000     0.00000     0.00000    -1.15828
   -12.04723    -1.14066    -0.00881    -0.00000    -0.00881     0.00000     0.00000     0.00000     0.00000     0.00000    -1.15828
   -11.84723    -1.14066    -0.00881    -0.00000    -0.00881     0.00000     0.00000     0.00000     0.00000     0.00000    -1.15828
   -11.64623    -1.14066    -0.00881    -0.00000    -0.00881     0.00000     0.00000     0.00000     0.00000     0.00000    -1.15828
   -11.44523    -1.14066    -0.00881    -0.00000    -0.00881     0.00000     0.00000     0.00000     0.00000     0.00000    -1.15828
   -11.24523    -1.14066    -0.00881    -0.00000    -0.00881     0.00000     0.00000     0.00000     0.00000     0.00000    -1.15828
   -11.04423    -1.14066    -0.00881    -0.00000    -0.00881     0.00000     0.00000     0.00000     0.00000     0.00000    -1.15828
   -10.84423    -1.14066    -0.00881    -0.00000    -0.00881     0.00000     0.00000     0.00000     0.00000     0.00000    -1.15828
   -10.64323    -1.14066    -0.00881    -0.00000    -0.00881     0.00000     0.00000     0.00000     0.00000     0.00000    -1.15828
   -10.44323    -1.14066    -0.00881    -0.00000    -0.00881     0.00000     0.00000     0.00000     0.00000     0.00000    -1.15828
   -10.24223    -1.14066    -0.00881    -0.00000    -0.00881     0.00000     0.00000     0.00000     0.00000     0.00000    -1.15828
   -10.04123    -1.14066    -0.00881    -0.00000    -0.00881     0.00000     0.00000     0.00000     0.00000     0.00000    -1.15828
    -9.84123    -1.14066    -0.00881    -0.00000    -0.00881     0.00000     0.00000     0.00000     0.00000     0.00000    -1.15828
    -9.64023    -1.14066    -0.00881    -0.00000    -0.00881     0.00000     0.00000     0.00000     0.00000     0.00000    -1.15828
    -9.44023    -1.14066    -0.00908    -0.00000    -0.00908     0.00000     0.00000     0.00000     0.00000     0.00000    -1.15883
    -9.23923    -1.14087    -0.01745    -0.00000    -0.01745     0.00000     0.00000     0.00000     0.00000     0.00000    -1.17578
    -9.03823    -1.14150    -0.03533    -0.00000    -0.03533     0.00000     0.00000     0.00000     0.00000     0.00000    -1.21217
    -8.83823    -1.14299    -0.06036    -0.00001    -0.06036     0.00000     0.00000     0.00000     0.00000     0.00000    -1.26373
    -8.63723    -1.14522    -0.08931    -0.00001    -0.08931     0.00000     0.00000     0.00000     0.00000     0.00000    -1.32385
    -8.43723    -1.14807    -0.11918    -0.00001    -0.11918     0.00000     0.00000     0.00000     0.00000     0.00000    -1.38643
    -8.23623    -1.15220    -0.15115    -0.00001    -0.15115     0.00000     0.00000     0.00000     0.00000     0.00000    -1.45450
    -8.03623    -1.15628    -0.17415    -0.00001    -0.17415     0.00000     0.00000     0.00000     0.00000     0.00000    -1.50459
    -7.83523    -1.15930    -0.18674    -0.00001    -0.18674     0.00000     0.00000     0.00000     0.00000     0.00000    -1.53279
    -7.63423    -1.16455    -0.20588    -0.00001    -0.20588     0.00000     0.00000     0.00000     0.00000     0.00000    -1.57632
    -7.43423    -1.16901    -0.22518    -0.00001    -0.22518     0.00000     0.00000     0.00000     0.00000     0.00000    -1.61938
    -7.23323    -1.17139    -0.23964    -0.00002    -0.23964     0.00000     0.00000     0.00000     0.00000     0.00000    -1.65069
    -7.03323    -1.17435    -0.25596    -0.00002    -0.25596     0.00000     0.00000     0.00000     0.00000     0.00000    -1.68629
    -6.83223    -1.17855    -0.27489    -0.00002    -0.27489     0.00000     0.00000     0.00000     0.00000     0.00000    -1.72836
    -6.63123    -1.18336    -0.29690    -0.00002    -0.29690     0.00000     0.00000     0.00000     0.00000     0.00000    -1.77718
    -6.43123    -1.18653    -0.31903    -0.00003    -0.31903     0.00000     0.00000     0.00000     0.00000     0.00000    -1.82463
    -6.23023    -1.18861    -0.33877    -0.00011    -0.33877     0.00000     0.00000     0.00000     0.00000     0.00000    -1.86626
    -6.03023    -1.19210    -0.36058    -0.00160    -0.36058     0.00000     0.00000     0.00000     0.00000     0.00000    -1.91487
    -5.82923    -1.19574    -0.38642    -0.00606    -0.38642     0.00000     0.00000     0.00000     0.00000     0.00000    -1.97465
    -5.62923    -1.19785    -0.40705    -0.01368    -0.40705     0.00000     0.00000     0.00000     0.00000     0.00000    -2.02563
    -5.42823    -1.20054    -0.43110    -0.02368    -0.43110     0.00000     0.00000     0.00000     0.00000     0.00000    -2.08642
    -5.22723    -1.20384    -0.46503    -0.03701    -0.46503     0.00000     0.00000     0.00000     0.00000     0.00000    -2.17091
    -5.02723    -1.20723    -0.49662    -0.05466    -0.49662     0.00000     0.00000     0.00000     0.00000     0.00000    -2.25514
    -4.82623    -1.20908    -0.52852    -0.07431    -0.52852     0.00000     0.00000     0.00000     0.00000     0.00000    -2.34043
    -4.62623    -1.21072    -0.57308    -0.09322    -0.57308     0.00000     0.00000     0.00000     0.00000     0.00000    -2.45010
    -4.42523    -1.21257    -0.61985    -0.11294    -0.61985     0.00000     0.00000     0.00000     0.00000     0.00000    -2.56521
    -4.22523    -1.21422    -0.66478    -0.13515    -0.66478     0.00000     0.00000     0.00000     0.00000     0.00000    -2.67894
    -4.02423    -1.21628    -0.70019    -0.15741    -0.70019     0.00000     0.00000     0.00000     0.00000     0.00000    -2.77407
    -3.82323    -1.21799    -0.72913    -0.17880    -0.72913     0.00000     0.00000     0.00000     0.00000     0.00000    -2.85506
    -3.62323    -1.21883    -0.76172    -0.20127    -0.76172     0.00000     0.00000     0.00000     0.00000     0.00000    -2.94354
    -3.42223    -1.21967    -0.78707    -0.22615    -0.78707     0.00000     0.00000     0.00000     0.00000     0.00000    -3.01997
    -3.22223    -1.22074    -0.80678    -0.25244    -0.80678     0.00000     0.00000     0.00000     0.00000     0.00000    -3.08674
    -3.02123    -1.22128    -0.82789    -0.27817    -0.82789     0.00000     0.00000     0.00000     0.00000     0.00000    -3.15523
    -2.82023    -1.22189    -0.85377    -0.30652    -0.85377     0.00000     0.00000     0.00000     0.00000     0.00000    -3.23596
    -2.62023    -1.22274    -0.87817    -0.33647    -0.87817     0.00000     0.00000     0.00000     0.00000     0.00000    -3.31555
    -2.41923    -1.22324    -0.89408    -0.36535    -0.89408     0.00000     0.00000     0.00000     0.00000     0.00000    -3.37675
    -2.21923    -1.22338    -0.91263    -0.40002    -0.91263     0.00000     0.00000     0.00000     0.00000     0.00000    -3.44865
    -2.01823    -1.22357    -0.93236    -0.43811    -0.93236     0.00000     0.00000     0.00000     0.00000     0.00000    -3.52639
    -1.81823    -1.22368    -0.94685    -0.48132    -0.94685     0.00000     0.00000     0.00000     0.00000     0.00000    -3.59869
    -1.61723    -1.22372    -0.95482    -0.53378    -0.95482     0.00000     0.00000     0.00000     0.00000     0.00000    -3.66714
    -1.41623    -1.22373    -0.95518    -0.59116    -0.95518     0.00000     0.00000     0.00000     0.00000     0.00000    -3.72526
    -1.21623    -1.22374    -0.95520    -0.66014    -0.95520     0.00000     0.00000     0.00000     0.00000     0.00000    -3.79427
    -1.01523    -1.22374    -0.95521    -0.72976    -0.95521     0.00000     0.00000     0.00000     0.00000     0.00000    -3.86392
    -0.81523    -1.22374    -0.95522    -0.78236    -0.95522     0.00000     0.00000     0.00000     0.00000     0.00000    -3.91654
    -0.61423    -1.22375    -0.95522    -0.82442    -0.95522     0.00000     0.00000     0.00000     0.00000     0.00000    -3.95861
    -0.41323    -1.22375    -0.95523    -0.85530    -0.95523     0.00000     0.00000     0.00000     0.00000     0.00000    -3.98950
    -0.21323    -1.22375    -0.95523    -0.86634    -0.95523     0.00000     0.00000     0.00000     0.00000     0.00000    -4.00055
    -0.01223    -1.22375    -0.95523    -0.86659    -0.95523     0.00000     0.00000     0.00000     0.00000     0.00000    -4.00079
     0.18777    -1.22375    -0.95523    -0.86659    -0.95523     0.00000     0.00000     0.00000     0.00000     0.00000    -4.00079
     0.38877    -1.22375    -0.95523    -0.86659    -0.95523     0.00000     0.00000     0.00000     0.00000     0.00000    -4.00079
     0.58877    -1.22375    -0.95523    -0.86659    -0.95523     0.00000     0.00000     0.00000     0.00000     0.00000    -4.00079
     0.78977    -1.22375    -0.95523    -0.86659    -0.95523     0.00000     0.00000     0.00000     0.00000     0.00000    -4.00079
     0.99077    -1.22375    -0.95523    -0.86659    -0.95523     0.00000     0.00000     0.00000     0.00000     0.00000    -4.00079
     1.19077    -1.22375    -0.95523    -0.86659    -0.95523     0.00000     0.00000     0.00000     0.00000     0.00000    -4.00079
     1.39177    -1.22375    -0.95523    -0.86659    -0.95523     0.00000     0.00000     0.00000     0.00000     0.00000    -4.00079
     1.59177    -1.22375    -0.95523    -0.86659    -0.95523     0.00000     0.00000     0.00000     0.00000     0.00000    -4.00079
     1.79277    -1.22375    -0.95523    -0.86659    -0.95523     0.00000     0.00000     0.00000     0.00000     0.00000    -4.00079
     1.99377    -1.22375    -0.95523    -0.86659    -0.95523     0.00000     0.00000     0.00000     0.00000     0.00000    -4.00079
     2.19377    -1.22375    -0.95523    -0.86659    -0.95523     0.00000     0.00000     0.00000     0.00000     0.00000    -4.00079
     2.39477    -1.22375    -0.95523    -0.86659    -0.95523     0.00000     0.00000     0.00000     0.00000     0.00000    -4.00079
     2.59477    -1.22375    -0.95523    -0.86659    -0.95523     0.00000     0.00000     0.00000     0.00000     0.00000    -4.00079
     2.79577    -1.22375    -0.95523    -0.86659    -0.95523     0.00000     0.00000     0.00000     0.00000     0.00000    -4.00079
     2.99577    -1.22375    -0.95523    -0.86659    -0.95523     0.00000     0.00000     0.00000     0.00000     0.00000    -4.00079
     3.19677    -1.22375    -0.95523    -0.86659    -0.95523     0.00000     0.00000     0.00000     0.00000     0.00000    -4.00079
     3.39777    -1.22375    -0.95523    -0.86659    -0.95523     0.00000     0.00000     0.00000     0.00000     0.00000    -4.00079
     3.59777    -1.22375    -0.95523    -0.86659    -0.95523     0.00000     0.00000     0.00000     0.00000     0.00000    -4.00079
     3.79877    -1.22375    -0.95523    -0.86659    -0.95523     0.00000     0.00000     0.00000     0.00000     0.00000    -4.00080
     3.99877    -1.22376    -0.95523    -0.86686    -0.95523     0.00000     0.00000     0.00000     0.00000     0.00000    -4.00107
     4.19977    -1.22397    -0.95524    -0.86892    -0.95524     0.00000     0.00000     0.00000     0.00000     0.00000    -4.00336
     4.39977    -1.22455    -0.95526    -0.87457    -0.95526     0.00000     0.00000     0.00000     0.00000     0.00000    -4.00963
     4.60077    -1.22552    -0.95532    -0.88499    -0.95532     0.00000     0.00000     0.00000     0.00000     0.00000    -4.02115
     4.80177    -1.22680    -0.95542    -0.89850    -0.95542     0.00000     0.00000     0.00000     0.00000     0.00000    -4.03614
     5.00177    -1.22806    -0.95554    -0.90992    -0.95554     0.00000     0.00000     0.00000     0.00000     0.00000    -4.04905
     5.20277    -1.22955    -0.95571    -0.92140    -0.95571     0.00000     0.00000     0.00000     0.00000     0.00000    -4.06236
     5.40277    -1.23137    -0.95595    -0.93332    -0.95595     0.00000     0.00000     0.00000     0.00000     0.00000    -4.07659
     5.60377    -1.23321    -0.95622    -0.94573    -0.95622     0.00000     0.00000     0.00000     0.00000     0.00000    -4.09137
     5.80477    -1.23517    -0.95652    -0.96075    -0.95652     0.00000     0.00000     0.00000     0.00000     0.00000    -4.10897
     6.00477    -1.23716    -0.95685    -0.97547    -0.95685     0.00000     0.00000     0.00000     0.00000     0.00000    -4.12633
     6.20577    -1.23937    -0.95726    -0.98836    -0.95726     0.00000     0.00000     0.00000     0.00000     0.00000    -4.14224
     6.40577    -1.24205    -0.95781    -1.00306    -0.95781     0.00000     0.00000     0.00000     0.00000     0.00000    -4.16072
     6.60677    -1.24484    -0.95838    -1.01874    -0.95838     0.00000     0.00000     0.00000     0.00000     0.00000    -4.18034
     6.80677    -1.24811    -0.95910    -1.04132    -0.95910     0.00000     0.00000     0.00000     0.00000     0.00000    -4.20764
     7.00777    -1.25138    -0.95985    -1.06759    -0.95985     0.00000     0.00000     0.00000     0.00000     0.00000    -4.23867
     7.20877    -1.25368    -0.96033    -1.08669    -0.96033     0.00000     0.00000     0.00000     0.00000     0.00000    -4.26103
     7.40877    -1.25548    -0.96072    -1.10468    -0.96072     0.00000     0.00000     0.00000     0.00000     0.00000    -4.28160
     7.60977    -1.25746    -0.96120    -1.12230    -0.96120     0.00000     0.00000     0.00000     0.00000     0.00000    -4.30215
     7.80977    -1.25942    -0.96167    -1.13912    -0.96167     0.00000     0.00000     0.00000     0.00000     0.00000    -4.32188
     8.01077    -1.26133    -0.96216    -1.15603    -0.96216     0.00000     0.00000     0.00000     0.00000     0.00000    -4.34169
     8.21177    -1.26343    -0.96280    -1.17094    -0.96280     0.00000     0.00000     0.00000     0.00000     0.00000    -4.35997
     8.41177    -1.26566    -0.96346    -1.17923    -0.96346     0.00000     0.00000     0.00000     0.00000     0.00000    -4.37182
     8.61277    -1.26800    -0.96411    -1.18305    -0.96411     0.00000     0.00000     0.00000     0.00000     0.00000    -4.37927
     8.81277    -1.27180    -0.96520    -1.18781    -0.96520     0.00000     0.00000     0.00000     0.00000     0.00000    -4.39000
