      #Energy        TDOS-UP        TDOS-DOWN
     -20.87323       0.00000       0.00000
     -20.67223       0.00000       0.00000
     -20.47223       0.00000       0.00000
     -20.27123       0.00000       0.00000
     -20.07023       0.00000       0.00000
     -19.87023       0.00000       0.00000
     -19.66923       0.00000       0.00000
     -19.46923       0.00000       0.00000
     -19.26823       0.00000       0.00000
     -19.06723       0.00000       0.00000
     -18.86723       0.00000       0.00000
     -18.66623       0.00000      -0.00000
     -18.46623       0.00000      -0.00000
     -18.26523       0.00020      -0.00020
     -18.06523       0.01414      -0.01412
     -17.86423       0.06501      -0.06499
     -17.66323       0.14001      -0.13999
     -17.46323       0.21793      -0.21789
     -17.26223       0.29992      -0.29989
     -17.06223       0.37657      -0.37655
     -16.86123       0.45991      -0.45988
     -16.66123       0.55258      -0.55255
     -16.46023       0.63433      -0.63432
     -16.25923       0.71770      -0.71767
     -16.05923       0.82255      -0.82250
     -15.85823       0.93098      -0.93093
     -15.65823       1.02219      -1.02214
     -15.45723       1.14098      -1.14090
     -15.25623       1.29281      -1.29270
     -15.05623       1.46224      -1.46212
     -14.85523       1.66901      -1.66887
     -14.65523       1.84309      -1.84298
     -14.45423       1.94873      -1.94868
     -14.25423       1.99634      -1.99633
     -14.05323       2.00008      -2.00009
     -13.85223       2.00008      -2.00009
     -13.65223       2.00008      -2.00009
     -13.45123       2.00008      -2.00009
     -13.25123       2.00008      -2.00009
     -13.05023       2.00008      -2.00009
     -12.84923       2.00008      -2.00009
     -12.64923       2.00008      -2.00009
     -12.44823       2.00008      -2.00009
     -12.24823       2.00008      -2.00009
     -12.04723       2.00008      -2.00009
     -11.84723       2.00008      -2.00009
     -11.64623       2.00008      -2.00009
     -11.44523       2.00008      -2.00009
     -11.24523       2.00008      -2.00009
     -11.04423       2.00008      -2.00009
     -10.84423       2.00008      -2.00009
     -10.64323       2.00008      -2.00009
     -10.44323       2.00008      -2.00009
     -10.24223       2.00008      -2.00009
     -10.04123       2.00008      -2.00009
      -9.84123       2.00008      -2.00009
      -9.64023       2.00008      -2.00009
      -9.44023       2.00148      -2.00149
      -9.23923       2.04505      -2.04507
      -9.03823       2.13793      -2.13795
      -8.83823       2.26697      -2.26699
      -8.63723       2.41508      -2.41509
      -8.43723       2.56601      -2.56601
      -8.23623       2.72667      -2.72668
      -8.03623       2.84263      -2.84264
      -7.83523       2.90614      -2.90615
      -7.63423       3.00194      -3.00193
      -7.43423       3.09769      -3.09769
      -7.23323       3.16818      -3.16818
      -7.03323       3.24695      -3.24694
      -6.83223       3.33746      -3.33745
      -6.63123       3.44140      -3.44140
      -6.43123       3.54315      -3.54314
      -6.23023       3.63262      -3.63261
      -6.03023       3.73577      -3.73577
      -5.82923       3.86524      -3.86525
      -5.62923       3.97996      -3.98000
      -5.42823       4.11461      -4.11463
      -5.22723       4.29819      -4.29819
      -5.02723       4.48299      -4.48298
      -4.82623       4.67039      -4.67038
      -4.62623       4.90106      -4.90105
      -4.42523       5.13885      -5.13884
      -4.22523       5.37413      -5.37412
      -4.02423       5.57213      -5.57212
      -3.82323       5.74050      -5.74048
      -3.62323       5.92196      -5.92197
      -3.42223       6.08092      -6.08094
      -3.22223       6.22164      -6.22166
      -3.02123       6.36274      -6.36272
      -2.82023       6.52439      -6.52435
      -2.62023       6.68230      -6.68228
      -2.41923       6.80527      -6.80526
      -2.21923       6.94752      -6.94751
      -2.01823       7.09890      -7.09887
      -1.81823       7.23991      -7.23988
      -1.61723       7.37590      -7.37589
      -1.41623       7.49336      -7.49333
      -1.21623       7.62821      -7.62816
      -1.01523       7.75999      -7.75991
      -0.81523       7.85575      -7.85567
      -0.61423       7.92930      -7.92920
      -0.41323       7.98140      -7.98131
      -0.21323       7.99967      -7.99961
      -0.01223       8.00008      -8.00001
       0.18777       8.00008      -8.00001
       0.38877       8.00008      -8.00001
       0.58877       8.00008      -8.00001
       0.78977       8.00008      -8.00001
       0.99077       8.00008      -8.00001
       1.19077       8.00008      -8.00001
       1.39177       8.00008      -8.00001
       1.59177       8.00008      -8.00001
       1.79277       8.00008      -8.00001
       1.99377       8.00008      -8.00001
       2.19377       8.00008      -8.00001
       2.39477       8.00008      -8.00001
       2.59477       8.00008      -8.00001
       2.79577       8.00008      -8.00001
       2.99577       8.00008      -8.00001
       3.19677       8.00008      -8.00001
       3.39777       8.00008      -8.00001
       3.59777       8.00008      -8.00001
       3.79877       8.00012      -8.00005
       3.99877       8.00847      -8.00849
       4.19977       8.08081      -8.08113
       4.39977       8.22297      -8.22345
       4.60077       8.38804      -8.38848
       4.80177       8.54857      -8.54889
       5.00177       8.66370      -8.66389
       5.20277       8.76404      -8.76422
       5.40277       8.86331      -8.86347
       5.60377       8.95525      -8.95542
       5.80477       9.05738      -9.05752
       6.00477       9.15168      -9.15180
       6.20577       9.23515      -9.23528
       6.40577       9.32748      -9.32759
       6.60677       9.42051      -9.42063
       6.80677       9.53734      -9.53748
       7.00777       9.66300      -9.66310
       7.20877       9.74728      -9.74730
       7.40877       9.81900      -9.81902
       7.60977       9.89154      -9.89156
       7.80977       9.96100      -9.96101
       8.01077      10.03243     -10.03244
       8.21177      10.10395     -10.10397
       8.41177      10.15963     -10.15965
       8.61277      10.20424     -10.20427
       8.81277      10.26793     -10.26802
       9.01377      10.35428     -10.35440
       9.21377      10.44646     -10.44656
       9.41477      10.55210     -10.55222
       9.61577      10.68661     -10.68677
       9.81577      10.81686     -10.81700
      10.01677      10.93375     -10.93388
      10.21677      11.05219     -11.05231
      10.41777      11.17278     -11.17290
      10.61777      11.34724     -11.34747
      10.81877      11.59676     -11.59710
      11.01977      11.87136     -11.87169
      11.21977      12.13442     -12.13475
      11.42077      12.39347     -12.39380
      11.62077      12.68471     -12.68505
      11.82177      12.93711     -12.93739
      12.02277      13.12402     -13.12428
      12.22277      13.35258     -13.35298
      12.42377      13.58455     -13.58498
      12.62377      13.76391     -13.76430
      12.82477      13.95110     -13.95151
      13.02477      14.14789     -14.14824
      13.22577      14.27981     -14.28005
      13.42677      14.35635     -14.35655
      13.62677      14.44809     -14.44830
      13.82777      14.57430     -14.57456
      14.02777      14.71028     -14.71056
      14.22877      14.86882     -14.86915
      14.42977      15.06107     -15.06143
      14.62977      15.25033     -15.25067
      14.83077      15.41094     -15.41128
      15.03077      15.54860     -15.54896
      15.23177      15.68976     -15.69013
      15.43177      15.83434     -15.83465
      15.63277      15.97298     -15.97330
      15.83377      16.12691     -16.12734
      16.03377      16.31211     -16.31260
      16.23477      16.50975     -16.51017
      16.43477      16.67858     -16.67897
      16.63577      16.83811     -16.83851
      16.83577      17.00752     -17.00791
      17.03677      17.15579     -17.15617
      17.23777      17.30297     -17.30338
      17.43777      17.46485     -17.46532
      17.63877      17.64408     -17.64459
      17.83877      17.83248     -17.83294
      18.03977      18.00927     -18.00969
      18.24077      18.17666     -18.17711
      18.44077      18.34496     -18.34540
      18.64177      18.52677     -18.52725
      18.84177      18.74357     -18.74413
      19.04277      18.99540     -18.99596
      19.24277      19.24071     -19.24127
      19.44377      19.44517     -19.44571
      19.64477      19.62510     -19.62560
      19.84477      19.79918     -19.79969
      20.04577      19.98233     -19.98284
      20.24577      20.15146     -20.15197
      20.44677      20.30158     -20.30211
      20.64777      20.47161     -20.47211
      20.84777      20.63760     -20.63811
      21.04877      20.80404     -20.80455
      21.24877      20.95433     -20.95484
      21.44977      21.06833     -21.06882
      21.64977      21.17148     -21.17195
      21.85077      21.27016     -21.27062
      22.05177      21.36416     -21.36458
      22.25177      21.46654     -21.46696
      22.45277      21.57935     -21.57979
      22.65277      21.67600     -21.67640
      22.85377      21.77102     -21.77140
      23.05377      21.87997     -21.88035
      23.25477      21.98383     -21.98419
      23.45577      22.09016     -22.09059
      23.65577      22.21996     -22.22043
      23.85677      22.35329     -22.35373
      24.05677      22.47147     -22.47191
      24.25777      22.59715     -22.59766
      24.45877      22.74327     -22.74380
      24.65877      22.91615     -22.91670
      24.85977      23.08716     -23.08770
      25.05977      23.24091     -23.24145
      25.26077      23.41893     -23.41955
      25.46077      23.59808     -23.59865
      25.66177      23.72975     -23.73027
      25.86277      23.86078     -23.86141
      26.06277      24.04452     -24.04522
      26.26377      24.25633     -24.25713
      26.46377      24.47707     -24.47797
      26.66477      24.73121     -24.73221
      26.86577      25.04512     -25.04632
      27.06577      25.39272     -25.39392
      27.26677      25.70001     -25.70111
      27.46677      25.95114     -25.95224
      27.66777      26.20919     -26.21039
      27.86777      26.49381     -26.49511
      28.06877      26.78125     -26.78254
      28.26977      27.08282     -27.08412
      28.46977      27.34628     -27.34748
      28.67077      27.56281     -27.56390
      28.87077      27.79067     -27.79176
      29.07177      28.01131     -28.01240
      29.27177      28.21256     -28.21362
      29.47277      28.38830     -28.38934
      29.67377      28.55946     -28.56052
      29.87377      28.73636     -28.73739
      30.07477      28.90354     -28.90455
      30.27477      29.06716     -29.06812
      30.47577      29.21995     -29.22087
      30.67677      29.36024     -29.36114
      30.87677      29.49608     -29.49695
      31.07777      29.62981     -29.63069
      31.27777      29.75998     -29.76084
      31.47877      29.88067     -29.88150
      31.67877      29.99238     -29.99322
      31.87977      30.11596     -30.11684
      32.08077      30.26019     -30.26112
      32.28077      30.41564     -30.41663
      32.48177      30.57443     -30.57545
      32.68177      30.72948     -30.73046
      32.88277      30.86971     -30.87068
      33.08377      31.00253     -31.00352
      33.28377      31.14440     -31.14538
      33.48477      31.28266     -31.28359
      33.68477      31.40793     -31.40887
      33.88577      31.52212     -31.52304
      34.08577      31.62033     -31.62117
      34.28677      31.72642     -31.72732
      34.48777      31.83927     -31.84010
      34.68777      31.90717     -31.90784
      34.88877      31.93070     -31.93135
      35.08877      31.94157     -31.94231
      35.28977      31.94974     -31.95048
      35.48977      31.95563     -31.95627
      35.69077      31.96067     -31.96131
      35.89177      31.96629     -31.96692
      36.09177      31.97212     -31.97276
      36.29277      31.98163     -31.98228
      36.49277      31.99187     -31.99252
      36.69377      31.99762     -31.99826
      36.89477      31.99971     -32.00034
      37.09477      31.99979     -32.00041
      37.29577      31.99979     -32.00041
      37.49577      31.99979     -32.00041
      37.69677      31.99979     -32.00041
      37.89677      31.99979     -32.00041
      38.09777      31.99979     -32.00041
      38.29877      31.99979     -32.00041
      38.49877      31.99979     -32.00041
      38.69977      31.99979     -32.00041
      38.89977      31.99979     -32.00041
      39.10077      31.99979     -32.00041
      39.30177      31.99979     -32.00041
